129
130
123
126
125
122
114
111
120
124
125
109
120
124
121
127
108
108
120
120
115
116
119
117
119
121
120
123
119
121
120
136
96
121
105
114
150
146
154
156
142
136
140
114
121
142
122
145
123
123
126
138
123
130
120
126
145
120
148
138
150
143
144
149
144
139
121
135
151
147
155
155
146
138
135
151
140
146
151
148
122
136
157
141
130
133
129
123
128
128
135
134
142
155
150
156
156
157
152
146
132
147
134
137
143
151
142
146
142
155
165
145
181
154
144
149
130
129
138
141
135
149
148
164
150
138
141
143
133
144
125
148
124
114
124
126
136
137
158
150
148
149
152
137
139
146
151
154
139
139
144
138
144
151
148
146
146
146
143
156
159
158
168
174
163
154
174
159
160
120
137
126
128
118
120
130
118
118
120
155
151
159
133
150
147
142
143
151
164
149
155
138
144
135
137
147
135
138
133
130
133
137
138
120
120
127
129
131
127
127
124
132
142
154
159
162
161
159
148
147
165
151
149
169
165
151
145
142
136
133
140
128
140
138
142
134
136
141
146
140
135
127
136
137
132
147
146
153
150
142
136
128
137
158
122
147
149
140
136
118
116
134
122
122
144
139
118
125
117
122
133
109
120
124
126
130
119
138
124
128
134
134
121
145
134
146
155
156
127
131
120
127
129
116
124
138
117
117
126
128
129
122
121
122
120
114
123
126
123
126
120
120
121
123
120
124
122
118
119
120
122
120
123
117
115
111
116
114
119
114
114
123
119
115
110
112
111
115
115
125
114
111
110
102
110
114
116
117
116
115
113
113
119
114
114
115
103
113
115
114
116
110
104
95
106
111
112
100
116
102
108
109
111
115
115
111
115
109
109
112
110
106
108
108
93
105
108
113
107
110
109
114
111
104
93
96
104
107
105
102
111
103
109
109
103
109
111
110
94
98
99
92
88
109
95
111
104
97
115
135
143
120
125
118
120
110
109
108
106
102
123
107
115
118
83
109
116
112
102
111
130
126
140
143
133
125
143
137
104
112
139
124
106
133
119
107
134
139
142
142
140
140
147
143
141
136
141
135
129
148
146
146
149
141
120
151
122
116
114
138
146
134
119
124
135
109
113
104
114
137
117
122
152
109
152
151
150
155
115
156
150
143
151
144
147
154
152
146
149
153
120
117
150
130
137
118
113
112
146
114
131
124
130
109
107
128
125
129
106
120
116
112
123
136
111
134
114
114
116
107
111
134
117
113
111
119
139
100
116
107
117
122
112
114
120
127
127
121
125
139
141
131
140
124
120
137
132
138
139
148
122
128
124
122
126
118
124
134
136
126
127
123
128
114
124
126
122
125
121
136
113
132
126
118
114
134
116
123
128
122
134
128
113
129
132
121
118
114
127
111
128
120
126
121
122
136
131
123
127
128
136
129
134
135
137
131
137
125
123
130
119
133
130
131
135
139
128
134
129
116
129
127
114
128
123
125
134
130
122
126
133
136
133
123
130
130
135
131
128
130
122
132
130
131
130
129
128
129
129
129
127
129
122
122
125
128
128
129
131
130
125
112
117
120
124
125
124
119
124
124
127
126
126
121
123
122
124
123
126
123
123
126
124
118
120
122
122
120
121
116
122
125
124
124
123
111
122
124
124
125
121
123
121
125
118
125
124
126
123
126
125
126
121
123
124
124
125
126
124
125
122
125
105
121
121
122
124
123
122
126
123
119
123
118
113
118
117
114
118
120
121
123
121
121
121
126
118
126
112
122
123
120
130
125
138
144
145
117
115
127
123
127
120
101
119
126
125
118
119
125
129
142
116
115
109
104
118
121
105
123
112
112
121
125
123
121
140
112
124
120
129
116
130
116
120
116
127
128
128
127
138
97
127
111
112
119
118
128
123
137
115
121
114
115
120
121
123
112
120
120
121
122
123
121
127
131
129
121
119
125
128
119
120
131
125
122
125
135
129
129
127
133
134
123
136
124
115
121
135
125
125
128
133
134
123
119
132
113
121
117
125
124
111
125
116
111
126
122
112
107
126
114
132
110
124
117
129
122
133
125
120
116
118
122
111
119
114
118
123
123
113
127
124
119
121
118
122
120
119
118
112
116
116
116
119
115
120
118
119
118
118
119
118
116
117
118
119
120
116
116
117
119
110
119
118
119
116
115
118
109
118
118
117
118
120
119
121
120
120
119
120
105
119
120
101
110
115
109
115
110
121
117
125
119
126
128
120
123
114
126
122
134
106
106
124
123
129
119
128
139
115
122
112
112
113
126
121
117
121
126
102
127
127
118
122
119
102
127
117
114
121
117
118
121
140
104
119
120
124
103
117
126
129
115
122
124
109
120
115
127
121
127
126
137
119
134
106
123
127
115
114
114
128
115
122
123
116
117
125
126
120
125
131
115
118
140
117
128
117
116
115
128
125
119
119
136
117
114
124
107
120
120
116
118
114
119
127
132
112
120
127
127
123
107
116
126
118
121
121
121
118
123
128
125
132
120
123
111
123
122
122
123
123
138
117
124
145
145
121
124
122
125
123
128
115
123
126
129
143
120
116
120
118
135
112
113
118
118
119
112
114
117
136
106
120
120
123
125
124
124
126
117
123
120
124
125
121
120
124
135
110
105
112
115
120
118
123
116
121
111
117
118
111
118
117
118
117
119
120
118
120
119
120
109
110
120
122
121
119
120
125
112
114
116
118
122
117
119
117
122
117
119
118
120
119
119
118
121
119
104
118
120
122
108
118
121
121
119
118
121
119
116
119
117
112
116
118
118
120
119
120
121
121
122
119
122
116
118
118
106
117
115
115
116
120
119
119
117
115
117
115
112
114
113
115
107
113
114
116
116
124
106
141
108
116
120
115
117
109
121
125
123
126
134
111
125
125
118
150
121
111
124
127
139
148
140
155
135
158
155
160
167
168
160
160
150
151
143
141
143
156
137
147
143
139
140
137
148
147
147
134
142
144
129
150
154
155
160
161
154
152
157
140
136
155
156
157
141
143
140
140
132
154
132
156
158
159
158
164
167
151
160
154
160
156
141
149
154
157
163
155
159
160
145
124
150
162
93
147
115
138
119
118
148
109
144
144
168
143
158
162
164
153
150
132
156
139
122
127
124
131
151
141
122
125
129
156
136
150
114
153
155
127
149
152
135
139
140
137
135
135
140
137
134
131
132
134
133
133
136
132
133
131
118
138
135
154
139
159
161
120
137
128
127
142
135
131
117
115
129
135
130
127
126
127
146
134
146
144
126
149
110
154
133
144
128
124
136
139
132
125
124
130
129
135
122
135
122
127
132
142
135
155
136
143
140
132
143
123
138
140
122
131
135
135
132
122
131
113
130
130
135
138
127
133
128
139
135
136
135
114
117
125
130
126
132
127
129
120
124
124
130
127
125
128
127
123
124
123
127
126
125
126
127
128
129
131
128
126
126
124
126
127
127
128
128
129
127
128
127
126
129
128
127
126
126
127
124
126
124
127
128
130
126
128
128
121
124
124
127
129
126
130
129
125
126
129
127
125
127
122
124
126
124
121
116
124
121
123
127
123
125
112
122
119
128
122
129
142
137
128
121
127
135
142
133
128
141
126
126
131
127
134
134
129
126
127
130
123
131
136
132
126
121
112
144
122
133
150
119
124
134
137
127
137
122
129
136
115
151
113
118
130
130
128
133
151
123
144
115
146
122
137
128
135
127
133
127
143
127
124
130
134
129
137
128
150
127
120
132
125
143
129
120
121
134
126
132
137
117
141
148
120
128
131
125
144
117
129
123
141
126
133
126
131
127
139
110
138
113
127
134
125
123
131
128
125
127
124
118
112
123
134
108
125
127
130
124
119
124
136
126
120
135
114
128
125
127
119
124
118
120
120
123
119
122
126
122
121
121
121
124
124
123
122
123
122
122
121
122
120
121
123
123
123
122
122
124
120
121
121
120
121
122
124
119
121
123
122
122
123
120
122
123
120
122
121
120
122
117
109
108
115
116
117
108
114
115
114
120
120
120
118
109
119
104
114
116
136
151
113
121
113
128
113
122
136
120
123
140
113
128
124
149
110
125
122
126
133
131
133
116
144
147
129
157
135
141
132
117
110
120
143
113
130
127
132
131
128
128
121
117
129
124
127
128
152
130
125
124
132
127
121
126
133
133
116
149
117
116
127
127
150
146
140
105
129
139
117
143
140
142
124
133
144
108
129
129
113
118
120
115
123
124
122
116
120
120
125
128
121
124
120
125
105
117
119
122
127
115
116
111
119
116
122
122
127
111
113
120
120
111
118
118
123
119
117
118
120
121
113
119
119
119
121
122
116
120
120
118
119
120
119
120
118
119
114
111
112
116
113
114
117
118
117
116
107
116
119
102
118
110
108
123
109
110
118
115
121
109
131
152
137
111
124
123
119
139
156
128
134
137
151
145
160
158
165
152
162
164
160
153
155
156
120
157
159
149
152
156
153
154
143
151
151
157
134
153
149
141
156
152
142
136
149
156
161
144
145
152
123
137
132
119
118
131
146
162
156
164
158
165
158
158
147
132
158
146
142
147
149
148
160
161
143
152
144
149
141
150
133
118
124
150
123
119
131
116
124
106
119
147
152
162
155
160
153
156
165
169
165
139
165
137
133
132
142
128
133
143
133
120
130
129
148
147
149
161
